num crossings	time (s)	maj axis (mm)	min axis (mm)	theta (rad )	slope (V/s)
1787	2031.991755	29.881303	1.060906	1.698510	1.704338
1789	2034.067521	29.875726	1.068378	1.698164	1.640646
1793	2038.218020	29.828532	1.077495	1.697487	1.597967
1795	2040.291916	29.789570	1.064257	1.696973	1.752748
1797	2042.367017	29.661960	1.140107	1.696378	1.632846
1799	2044.446789	31.204393	1.758936	1.726667	1.756090
1801	2046.528586	31.363761	2.136410	1.725176	1.583229
1803	2048.609418	31.774778	2.854076	1.722065	1.739344
1805	2050.690050	32.120849	2.269631	1.725248	1.766613
1807	2052.772929	32.478398	1.908896	1.728418	1.826937
1809	2054.853008	32.984361	1.950252	1.728340	2.011995
1811	2056.936153	32.487192	1.210440	1.697349	1.951040
1813	2059.015897	32.889310	1.241130	1.698899	1.962047
1815	2061.096196	33.910284	0.982930	1.721825	1.917013
1817	2063.176322	33.541781	4.688593	1.642072	2.058716
1819	2065.253955	34.684626	0.918856	1.720848	1.944370
1821	2067.334450	34.328954	0.942097	1.696236	2.055762
1823	2069.411748	34.474103	0.595194	1.699276	2.147776
1825	2071.491107	35.156099	5.063215	1.635924	2.224170
1827	2073.569373	36.035456	2.551766	1.729760	2.397150
1829	2075.649712	36.194468	2.369161	1.725583	2.250863
1831	2077.728170	35.996808	0.975594	1.693329	2.478926
1833	2079.808229	35.992737	4.803928	1.633864	2.385857
1835	2081.886475	36.551467	1.292117	1.696354	2.631828
1837	2083.965114	37.823915	2.273217	1.723869	2.494881
1839	2086.042919	37.991787	0.944314	1.721997	2.587671
1841	2088.120978	37.591841	0.945557	1.691004	2.538132
1843	2090.197709	37.863798	1.143207	1.693617	2.687479
1845	2092.273278	38.810283	2.265541	1.734514	2.691227
1847	2094.350684	39.070731	2.500702	1.734410	2.718511
1849	2096.426979	39.234176	2.789539	1.731760	2.648467
1851	2098.504491	39.569790	2.291520	1.735341	2.692761
1853	2100.581304	39.440008	1.077601	1.693687	2.826080
1855	2102.660076	40.159110	2.409171	1.733210	2.770340
1857	2104.737159	40.469170	2.369574	1.732388	2.928684
1859	2106.815968	40.853145	2.399640	1.733248	2.973008
1861	2108.893331	40.292110	1.262251	1.695663	3.056293
1863	2110.972364	41.127626	0.961380	1.717817	2.890566
1865	2113.049761	41.456934	4.767573	1.642800	3.071803
1867	2115.127828	41.760905	2.447007	1.730611	2.996926
1869	2117.204516	41.986165	2.483992	1.731178	3.133684
1871	2119.282770	42.094571	0.976968	1.717651	3.104705
1873	2121.360166	41.799137	0.883086	1.688777	3.187507
1875	2123.439030	42.377050	2.610338	1.733971	3.116577
1877	2125.516892	42.670105	2.640608	1.728586	3.263749
1879	2127.596280	42.446476	1.044442	1.689672	3.237231
1881	2129.674090	43.434437	0.985608	1.714368	3.341211
1883	2131.753604	42.587659	0.725466	1.693834	3.433775
1885	2133.832642	42.844289	0.874021	1.690028	3.420426
1887	2135.911584	45.083301	4.189561	1.646668	3.489307
1889	2137.990069	44.115282	2.466203	1.728384	3.518779
1891	2140.067715	44.451643	2.560541	1.728263	3.600743
1893	2142.144578	43.839795	1.143218	1.692051	3.488185
1895	2144.222233	44.832097	2.698197	1.722161	3.711530
1897	2146.299832	44.130789	0.960193	1.688310	3.713053
1899	2148.376260	45.275879	4.770072	1.641005	3.704167
1901	2150.454159	45.238064	2.532347	1.721929	3.366210
1903	2152.531920	45.586986	2.596441	1.722702	3.787347
1905	2154.608589	45.689002	2.518361	1.723379	3.782085
1907	2156.685723	46.065728	2.733281	1.723764	3.967603
1909	2158.763321	45.881332	1.115906	1.715367	3.752180
1911	2160.839859	46.458489	4.603764	1.643422	4.019536
1913	2162.917654	46.225126	1.137924	1.713986	3.831621
1915	2164.993514	45.490550	0.755214	1.688929	3.871738
1917	2167.069892	45.736419	0.776839	1.688856	3.954290
1919	2169.145486	47.104391	4.232716	1.646926	4.016537
1921	2171.221555	46.929864	1.123835	1.710457	3.945048
1923	2173.296869	47.867267	4.135611	1.641780	3.941561
1925	2175.372822	47.271746	2.573660	1.728516	3.994249
1927	2177.449337	46.704436	1.091953	1.688241	4.163603
1929	2179.525483	47.916958	1.101031	1.711466	4.053708
1931	2181.601939	46.972414	0.895436	1.686015	3.900793
1933	2183.678500	47.803446	2.682714	1.727875	4.041778
1935	2185.755342	47.626503	2.561055	1.725753	4.060501
1937	2187.832532	47.242644	1.226265	1.690063	4.158637
1939	2189.909190	47.899805	2.511585	1.724483	4.076035
1941	2191.986094	48.381423	1.165125	1.710309	4.248265
1943	2194.063168	47.462146	0.881169	1.689718	4.168518
1945	2196.138927	47.728189	4.346444	1.654128	4.565779
1947	2198.217692	48.377348	2.578041	1.725151	4.392381
1949	2200.293908	48.970444	2.549425	1.724497	4.370529
1951	2202.371092	48.861049	2.821404	1.724010	4.295924
1953	2204.448538	48.992488	2.793160	1.721853	4.375243
1955	2206.526071	49.356274	1.184296	1.708864	4.329754
1957	2208.603905	49.933178	4.280654	1.643880	4.302550
1959	2210.681923	48.347674	1.086895	1.683862	4.462196
1961	2212.759603	49.956438	4.236546	1.644540	4.394551
1963	2214.837118	49.612074	2.799574	1.724362	4.434758
1965	2216.914502	48.660430	1.303575	1.688258	4.361225
1967	2218.991506	49.971988	1.306243	1.709970	4.421820
1969	2221.069019	50.268812	4.551194	1.644933	4.518160
1971	2223.145990	50.007079	2.890445	1.717230	4.653007
1973	2225.222553	49.760434	2.558535	1.720487	4.707284
1975	2227.298870	49.140516	1.143672	1.684108	4.513013
1977	2229.375409	49.872461	4.840742	1.643721	4.637427
1979	2231.452184	50.611128	2.559444	1.718939	4.532295
1981	2233.528880	50.250875	1.306654	1.709740	4.605294
1983	2235.605555	49.365608	1.048199	1.687027	4.503613
1985	2237.681966	51.027895	4.742882	1.644471	4.476748
1987	2239.758304	50.704784	2.569388	1.719706	4.577754
1989	2241.834422	50.635649	3.260498	1.718872	4.676013
1991	2243.910236	50.688363	2.632435	1.721163	4.606926
1993	2245.986092	50.985549	2.714783	1.722804	4.721671
1995	2248.061671	49.992300	1.134935	1.682668	4.696842
1997	2250.137520	51.788010	4.369063	1.644117	4.717200
1999	2252.213398	51.380479	1.303870	1.704534	4.564780
2001	2254.289012	51.473471	4.138443	1.649924	4.691386
2003	2256.364800	50.972054	2.776167	1.721892	4.800839
2005	2258.440970	51.481951	2.829294	1.719899	4.895506
2007	2260.516959	50.495742	1.188700	1.683505	4.954287
2009	2262.593512	50.498403	1.160786	1.687818	4.686451
2011	2264.669809	50.810599	1.149262	1.684568	4.647050
